raman_shift,intensity
-308.11,0
-297.39,0
-286.69,-14.48024691
-275.99,-13.05679012
-265.3,-13.64197531
-254.61,-15.72839506
-243.94,-17.16049383
-233.27,-15.98395062
-222.61,-16.90123457
-211.96,-11.79012346
-201.32,-13.49012346
-190.68,-14.28888889
-180.06,-17.83703704
-169.44,-17.3962963
-158.83,-21.6691358
-148.23,-18.68641975
-137.63,-18.79135802
-127.05,-11.27901235
-116.47,-22.23703704
-105.9,-15.69753086
-95.34,-15.21358025
-84.79,-18.39259259
-74.24,-17.30987654
-63.71,-26.57654321
-53.18,-14.49135802
-42.66,-12.38765432
-32.14,-15.31728395
-21.64,-14.70493827
-11.14,-8.890123457
-0.65,-17.32469136
9.83,-16.71358025
20.3,-19.55185185
30.76,-20.93333333
41.22,-13.48148148
51.67,-13.14814815
62.11,-11.76790123
72.54,-24.14074074
82.97,-25.9
93.39,-22.25802469
103.79,-28.57777778
114.2,-16.02469136
124.59,-17.29876543
134.97,-16.95925926
145.35,-19.11728395
155.72,-21.93703704
166.08,-18.28024691
176.44,-25.98765432
186.78,-24.33333333
197.12,-12.71975309
207.45,-5.211111111
217.77,-12.28765432
228.09,13.29876543
238.39,14.26790123
248.69,12.7962963
258.98,14.94691358
269.27,13.58271605
279.54,13.85802469
289.81,14.23703704
300.07,20.1308642
310.32,13.58888889
320.57,9.597530864
330.8,16.31358025
341.03,13.24320988
351.25,11.78148148
361.47,13.74567901
371.67,18.49506173
381.87,15.00864198
392.06,13.57530864
402.24,13.79506173
412.42,15.78024691
422.58,24.9308642
432.74,21.83580247
442.89,30.08271605
453.04,42.52592593
463.17,70.63950617
473.3,82.80864198
483.42,91.00123457
493.54,96.72222222
503.64,98.62222222
513.74,94.40740741
523.83,84.38765432
533.92,82.08765432
543.99,72.06049383
554.06,59.37407407
564.12,57.78024691
574.17,52.85679012
584.22,54.90864198
594.26,62.90987654
604.29,58.83333333
614.31,83.0382716
624.32,187.7493827
634.33,341.8962963
644.33,437.4740741
654.32,467.945679
664.31,370.7358025
674.29,160.4740741
684.26,90.82962963
694.22,91.10987654
704.17,80.7617284
714.12,63.63703704
724.06,56.30740741
733.99,61.10246914
743.92,62.2617284
753.84,68.53580247
763.75,85.58148148
773.65,98.45432099
783.55,112.5518519
793.43,120.9604938
803.31,124.391358
813.19,113.5777778
823.05,105.4444444
832.91,95.18148148
842.76,77.40987654
852.61,65.85185185
862.44,59.02098765
872.27,48.3345679
882.09,43.82592593
891.91,42.0382716
901.72,40.97283951
911.52,37.55679012
921.31,35.93703704
931.09,36.88271605
940.87,35.08395062
950.64,34.66296296
960.41,33.21234568
970.16,42.5617284
979.91,30.7382716
989.65,33.20740741
999.39,34.94444444
1009.11,35.39259259
1018.83,41.25802469
1028.55,46.0962963
1038.25,45.9345679
1047.95,53.01481481
1057.64,62.77777778
1067.33,56.35432099
1077,44.82098765
1086.67,44.21234568
1096.33,42.98024691
1105.99,31.0962963
1115.64,31.68888889
1125.28,29.90740741
1134.91,35.32592593
1144.54,35.47407407
1154.16,38.40864198
1163.77,44.22592593
1173.37,44.01975309
1182.97,39.0308642
1192.56,41.57407407
1202.15,42.11234568
1211.72,36.14444444
1221.29,38.17901235
1230.85,34.59012346
1240.41,32.58271605
1249.96,29.13333333
1259.5,33.03209877
1269.03,27.5345679
1278.56,37.41111111
1288.08,28.89135802
1297.59,24.93209877
1307.1,24.83333333
1316.6,26.77283951
1326.09,22.37037037
1335.58,29.25061728
1345.05,25.41111111
1354.53,24.68518519
1363.99,34.03333333
1373.45,31.52839506
1382.9,31.20493827
1392.34,30.52839506
1401.78,28.85925926
1411.21,26.55185185
1420.63,26.71604938
1430.04,25.91728395
1439.45,28.13333333
1448.85,22.25185185
1458.25,25.76049383
1467.64,23.02839506
1477.02,26.14567901
1486.39,24.87654321
1495.76,25.91728395
1505.12,27.21234568
1514.47,23.49012346
1523.82,24.58641975
1533.16,28.80246914
1542.49,27.37407407
1551.81,28.80864198
1561.13,25.38641975
1570.45,29.40123457
1579.75,23.0382716
1589.05,30.06419753
1598.34,33.7
1607.63,28.09135802
1616.9,25.88765432
1626.18,29.48518519
1635.44,28.52469136
1644.7,29.45679012
1653.95,25.52469136
1663.19,26.60493827
1672.43,26.48641975
1681.66,23.52222222
1690.88,24.0617284
1700.1,24.50123457
1709.31,20.61728395
1718.52,21.77777778
1727.71,18.68641975
1736.9,18.73333333
1746.09,20.65061728
1755.26,22.42716049
1764.43,22.08641975
1773.6,21.1037037
1782.75,15.48024691
1791.9,20.05432099
1801.05,22.31604938
1810.18,28.41358025
1819.31,20.50987654
1828.44,22.96666667
1837.55,19.23580247
1846.66,18.17407407
1855.77,21.65802469
1864.86,23.49012346
1873.95,19.1962963
1883.04,26.75925926
1892.11,20.84074074
1901.18,19.91975309
1910.25,18.56666667
1919.31,19.09506173
1928.36,17.57037037
1937.4,21.83209877
1946.44,20.78395062
1955.47,23.69382716
1964.49,21.8654321
1973.51,19.3
1982.52,26.90987654
1991.53,21.58148148
2000.52,18.18024691
2009.52,18.29259259
2018.5,19.67407407
2027.48,20.54938272
2036.45,21.73950617
2045.42,21.13950617
2054.38,19.06296296
2063.33,20.24567901
2072.28,18.13703704
2081.22,23.34320988
2090.15,19.71604938
2099.08,18.71728395
2108,18.45061728
2116.91,20.22839506
2125.82,20.69382716
2134.72,19.13703704
2143.61,23.51604938
2152.5,21.52469136
2161.38,20.38395062
2170.26,18.39753086
2179.13,25.8308642
2187.99,22.04691358
2196.84,16.35555556
2205.69,19.50617284
2214.54,19.17037037
2223.37,20.89753086
2232.2,19.46419753
2241.03,18.39135802
2249.85,17.42716049
2258.66,18.30246914
2267.46,17.58765432
2276.26,24.93703704
2285.05,19.84567901
2293.84,22.56296296
2302.62,20.3962963
2311.39,22.3037037
2320.16,24.49135802
2328.92,20.07777778
2337.67,25.4345679
2346.42,17.95802469
2355.16,24.0654321
2363.9,21.81358025
2372.63,19.3345679
2381.35,17.22469136
2390.07,17.99753086
2398.78,18.37901235
2407.48,20.25185185
2416.18,20.01728395
2424.87,22.00246914
2433.56,18.13703704
2442.24,16.37160494
2450.91,17.29012346
2459.58,19.39382716
2468.24,24.1382716
2476.89,18.09135802
2485.54,19.17654321
2494.18,18.41234568
2502.82,25.04320988
2511.45,19.1691358
2520.07,22.79382716
2528.69,21.43209877
2537.3,18.90123457
2545.91,17.43333333
2554.5,19.72098765
2563.1,24.35432099
2571.68,14.05679012
2580.26,16.8654321
2588.84,16.33333333
2597.41,18.24814815
2605.97,18.6962963
2614.52,18.14691358
2623.07,16.18641975
2631.62,19.17777778
2640.15,22.62345679
2648.69,17.80493827
2657.21,20.3382716
2665.73,18.96049383
2674.24,19.20987654
2682.75,17.35555556
2691.25,17.62469136
2699.75,16.7691358
2708.24,19.57037037
2716.72,18.17654321
2725.2,17.51234568
2733.67,20.02716049
2742.13,23.91111111
2750.59,18.09382716
2759.04,22.30123457
2767.49,17.69382716
2775.93,17.74320988
2784.36,17.38395062
2792.79,18.37901235
2801.22,18.21975309
2809.63,21.59012346
2818.04,17.61481481
2826.45,22.20740741
2834.85,18.35555556
2843.24,16.72222222
2851.63,19.52469136
2860.01,18.54938272
2868.38,16.35061728
2876.75,24.88148148
2885.12,17.82469136
2893.47,20.2382716
2901.82,19.28024691
2910.17,19.86666667
2918.51,18.82222222
2926.84,19.11358025
2935.17,19.50987654
2943.49,14.31975309
2951.81,18.69012346
2960.12,20.11358025
2968.42,19.39506173
2976.72,18.88641975
2985.01,21.97901235
2993.3,21.81851852
3001.58,19.55555556
3009.85,17.1617284
3018.12,18.87037037
3026.38,13.22469136
3034.64,17.88641975
3042.89,23.01728395
3051.14,20.00987654
3059.38,21.72716049
3067.61,26.93950617
3075.84,23.20493827
3084.06,21.1617284
3092.28,21.62222222
3100.49,21.20864198
3108.69,20.33580247
3116.89,19.16419753
3125.09,20.35185185
3133.27,20.55432099
3141.45,22.97283951
3149.63,21.16049383
3157.8,15.68888889
3165.97,20.7382716
3174.12,14.90740741
3182.28,16.15802469
3190.42,15.74197531
3198.57,20.17777778
3206.7,20.09382716
3214.83,21.02469136
3222.96,21.26419753
3231.07,21.13580247
3239.19,19.33209877
3247.29,18.55679012
3255.4,16.96419753
3263.49,20.64197531
3271.58,20.25308642
3279.67,20.6654321
3287.74,20.92592593
3295.82,20.54074074
3303.88,19.92592593
3311.95,20.62345679
3320,27.24938272
3328.05,24.48148148
3336.1,20.30617284
3344.14,18.06049383
3352.17,16.4617284
3360.2,22.23580247
3368.22,21.94691358
3376.24,21.57160494
3384.25,17.90617284
3392.25,25.97901235
3400.25,28.13209877
3408.25,23.8617284
3416.23,21.97037037
3424.22,20.34567901
3432.19,20.5
3440.17,18.85432099
3448.13,21.32962963
3456.09,22.79506173
3464.05,22.71358025
3472,22.32962963
3479.94,19.41481481
3487.88,21.60123457
3495.81,22.81728395
3503.74,24.51234568
3511.66,22.73333333
3519.58,25.24567901
3527.49,24.79382716
3535.39,20.26419753
3543.29,22.1308642
3551.19,19.04567901
3559.08,23.92962963
3566.96,25.19012346
3574.84,21.95185185
3582.71,23.71851852
3590.58,21.33333333
3598.44,24.41728395
3606.29,25.09382716
3614.14,26.62716049
3621.99,22.38888889
3629.83,28.01111111
3637.66,26.93950617
3645.49,27.58148148
3653.31,24.98518519
3661.13,25.39753086
3668.94,26.80864198
3676.75,26.5
3684.55,25.93580247
3692.34,24.3617284
3700.13,27.85925926
3707.92,22.05432099
3715.7,22.62839506
3723.47,28.48765432
3731.24,24.48888889
3739.01,20.73333333
3746.76,26.28518519
3754.52,18.90123457
3762.26,23.66049383
3770,29.15679012
3777.74,19.85802469
3785.47,20.69876543
3793.2,24.50493827
3800.92,16.97037037
3808.63,15.47160494
3816.34,22.93333333
3824.05,21.47777778
3831.75,22.88395062
3839.44,24.79012346
3847.13,22.00617284
3854.81,25.24444444
3862.49,23.8654321
3870.16,22.85802469
3877.83,26.19753086
3885.49,22.78395062
3893.14,23.54074074
3900.8,25.70987654
3908.44,25.81975309
3916.08,30.0962963
3923.72,24.94938272
3931.35,27.04444444
3938.97,24.99259259
3946.59,40.47283951
3954.21,25.58518519
3961.81,27.25802469
3969.42,24.59382716
3977.02,22.79506173
3984.61,22.89753086
3992.2,23.90246914
3999.78,31.30740741
4007.36,26.11111111
4014.93,27.8308642
4022.5,21.14814815
4030.06,22.84197531
4037.61,22.63950617
4045.17,33.16296296
4052.71,23.21234568
4060.25,24.79876543
4067.79,24.8345679
4075.32,24.77407407
4082.84,25.39012346
4090.36,18.19876543
4097.88,24.98024691
4105.39,25.91975309
4112.89,25.0962963
4120.39,19.52716049
4127.89,26.56666667
4135.38,24.41111111
4142.86,24.10246914
4150.34,24.65925926
4157.81,25.19506173
4165.28,22.4037037
4172.74,24.10740741
4180.202732,22.41604938
4187.655884,25.7
4195.103916,24.53703704
4202.546833,26.31358025
4209.984638,25.74074074
4217.417338,25.12469136
4224.844935,25.99135802
4232.267434,28.53333333
4239.684841,28.72469136
4247.097158,20.94938272
4254.504391,24.92962963
4261.906544,26.82962963
4269.303621,30.98024691
4276.695627,26.60246914
4284.082566,30.43333333
4291.464442,24.70864198
4298.84126,26.61728395
4306.213025,29.65679012
4313.57974,24.41358025
4320.94141,29.91604938
4328.298039,26.12962963
4335.649631,25.30493827
4342.996192,26.24444444
4350.337725,27.6345679
4357.674234,27.32962963
4365.005725,25.87530864
4372.3322,28.06296296
4379.653665,30.6345679
4386.970124,24.81604938
4394.281581,26.1345679
4401.588041,27.33580247
4408.889507,28.39753086
4416.185984,27.27160494
4423.477476,24.7617284
4430.763988,28.26419753
4438.045524,34.22962963
4445.322088,27.47407407
4452.593684,28.4308642
4459.860317,28.84074074
4467.12199,31.1654321
4474.378709,29.38518519
4481.630477,27.82962963
4488.877298,28.90246914
4496.119178,29.11851852
4503.356119,27.04938272
4510.588126,33.68024691
4517.815204,29.08271605
4525.037357,26.32716049
4532.254588,27.6617284
4539.466903,29.72469136
4546.674304,28.12469136
4553.876797,27.79876543
4561.074386,28.64444444
4568.267074,28.83580247
4575.454867,29.52962963
4582.637767,39.01851852
4589.81578,29.95185185
4596.988909,26.06296296
4604.157159,30.53580247
4611.320533,33.2691358
4618.479036,30.04197531
4625.632673,31.81975309
4632.781446,26.46296296
4639.925361,30.50123457
4647.064421,32.45308642
4654.19863,33.68024691
4661.327994,32.44567901
4668.452514,33.62962963
4675.572197,28.86419753
4682.687046,33.94444444
4689.797065,30.96419753
4696.902257,32.24444444
4704.002628,33.27283951
4711.098181,27.72962963
4718.188921,30.57283951
4725.274851,29.83703704
4732.355975,29.56790123
4739.432298,29.71481481
4746.503824,34.77283951
4753.570556,35.21604938
4760.632499,31.76790123
4767.689656,33.70740741
4774.742032,32.7617284
4781.789632,31.78271605
4788.832457,31.52469136
4795.870514,30.49135802
4802.903805,32.24814815
4809.932336,31.72839506
4816.956109,34.15185185
4823.975129,31.20493827
4830.9894,31.31728395
4837.998926,34.2691358
4845.00371,35.51728395
4852.003757,32.96049383
4858.999071,32.77901235
4865.989656,29.83950617
4872.975516,29.36049383
4879.956654,33.28641975
4886.933075,33.14074074
4893.904783,33.65925926
4900.871781,32.03580247
4907.834073,33.85802469
4914.791664,31.60617284
4921.744558,33.09876543
4928.692757,31.7962963
4935.636267,34.41851852
4942.575091,32.51111111
4949.509233,31.88395062
4956.438697,34.82962963
4963.363487,31.94320988
4970.283607,32.86790123
4977.19906,31.84444444
4984.109851,31.92345679
4991.015983,32.19753086
4997.917461,35.18641975
5004.814288,35.72962963
5011.706468,26.73580247
5018.594005,30.65679012
5025.476903,32.68641975
5032.355165,37.62469136
5039.228796,29.12839506
5046.0978,31.1962963
5052.96218,31.00246914
5059.821939,31.34444444
5066.677083,36.01481481
5073.527615,31.16790123
5080.373538,32.27901235
5087.214856,30.8
5094.051574,34.90493827
5100.883695,32.07037037
5107.711223,37.05185185
5114.534161,29.44444444
5121.352514,30.37037037
5128.166285,31.55925926
5134.975478,36.02962963
5141.780097,35.84197531
5148.580146,30.74814815
5155.375628,32.16666667
5162.166547,29.99753086
5168.952907,34.36419753
5175.734712,33.89876543
5182.511966,32.61358025
5189.284672,34.57160494
5196.052833,33.48641975
5202.816455,29.32222222
5209.57554,31.77530864
5216.330092,31.21234568
5223.080115,39.7
5229.825613,31.48395062
5236.56659,37.88641975
5243.303048,31.69753086
5250.034992,38.81851852
5256.762426,33.80617284
5263.485354,34.14567901
5270.203778,33.43950617
5276.917703,37.47901235
5283.627132,32.86419753
5290.33207,37.18271605
5297.032519,33.06419753
5303.728484,29.69506173
5310.419968,32.49259259
5317.106975,34.22222222
5323.789508,34.53703704
5330.467571,36.69259259
5337.141169,32.0382716
5343.810303,34.79753086
5350.474979,32.1037037
5357.1352,31.33703704
5363.790969,32.46296296
5370.44229,34.96049383
5377.089167,31.1382716
5383.731603,34.25308642
5390.369602,33.75679012
5397.003168,36.17654321
5403.632304,32.44320988
5410.257014,42.02592593
5416.877301,33.46790123
5423.49317,34.81358025
5430.104623,39.34320988
5436.711664,31.74197531
5443.314297,35.65925926
5449.912526,36.19135802
5456.506353,33.53950617
5463.095783,34.27037037
5469.68082,32.33703704
5476.261466,37.78888889
5482.837725,36.44320988
5489.409602,33.10617284
5495.977098,34.81111111
5502.540219,34.6691358
5509.098968,34.3308642
5515.653347,33.41358025
5522.203361,33.95802469
5528.749014,36.08765432
5535.290308,35.65802469
5541.827247,35.31234568
5548.359836,33.98765432
5554.888076,37.05432099
5561.411973,33.58395062
5567.931528,35.92839506
5574.446747,35.77530864
5580.957632,34.82345679
5587.464187,37.73209877
5593.966415,37.15432099
5600.46432,36.08641975
5606.957906,38.11728395
5613.447176,36.21604938
5619.932132,40.68765432
5626.41278,42.10123457
5632.889122,38.97407407
5639.361162,36.19135802
5645.828903,37.03950617
5652.292348,35.55308642
5658.751502,35.59382716
5665.206368,36.82592593
5671.656949,37.16790123
5678.103248,35.3037037
5684.545269,34.95185185
5690.983015,40.53580247
5697.416491,33.4308642
5703.845698,36.05925926
5710.270642,35.12222222
5716.691324,38.32962963
5723.10775,36.9617284
5729.519921,35.38518519
5735.927841,37.05802469
5742.331514,38.07901235
5748.730944,42.40987654
5755.126133,35.97037037
5761.517085,34.3654321
5767.903804,34.85185185
5774.286292,39.5037037
5780.664553,36.02222222
5787.038591,36.77283951
5793.408409,40.89753086
5799.77401,36.17654321
5806.135398,37.64320988
5812.492576,32.16296296
5818.845548,37.3617284
5825.194316,35.89876543
5831.538884,35.72222222
5837.879256,34.75061728
5844.215434,39.16419753
5850.547423,37.85061728
5856.875225,40.42716049
5863.198844,35.02345679
5869.518283,35.97530864
5875.833546,37.24567901
5882.144635,36.74938272
5888.451555,39.17037037
5894.754308,37.05061728
5901.052898,35.54814815
5907.347328,38.84320988
5913.637601,40.20987654
5919.923721,43.07654321
5926.205691,36.92469136
5932.483514,36.50493827
5938.757194,37.52962963
5945.026734,39.2691358
5951.292137,36.89382716
5957.553406,34.25802469
5963.810545,35.64197531
5970.063557,41.90123457
5976.312445,40.00246914
5982.557212,39.79135802
5988.797862,39.05185185
5995.034399,36.99012346
6001.266824,35.6617284
6007.495142,38.06296296
6013.719356,33.89382716
6019.939469,38.3037037
6026.155484,35.41234568
6032.367405,38.04444444
6038.575234,35.67037037
6044.778975,36.15185185
6050.978632,39.12222222
6057.174206,35.12592593
6063.365703,38.18518519
6069.553124,35.82222222
6075.736473,41.1654321
6081.915753,35.95802469
6088.090968,33.93580247
6094.26212,42.29012346
6100.429213,42.38765432
6106.592251,37.84074074
6112.751235,36.96666667
6118.90617,35.94691358
6125.057058,40.39135802
6131.203903,36.72469136
6137.346708,36.09259259
6143.485476,39.09876543
6149.62021,34.05925926
6155.750914,36.90493827
6161.87759,40.79012346
6168.000242,37.60493827
6174.118873,42.31111111
6180.233485,35.4345679
6186.344083,40.52222222
6192.45067,36.8962963
6198.553247,37.26296296
6204.651819,36.13950617
6210.746389,38.30987654
6216.83696,39.45679012
6222.923535,34.9962963
6229.006117,41.17160494
6235.084709,40.89259259
6241.159314,39.15061728
6247.229935,37.51481481
6253.296577,35.27037037
6259.35924,38.11111111
6265.41793,37.92345679
6271.472648,38.01358025
6277.523398,38.30123457
6283.570184,39.34074074
6289.613007,37.44197531
6295.651871,37.3691358
6301.68678,38.75555556
6307.717736,36.48148148
6313.744742,39.11358025
6319.767802,38.77777778
6325.786918,37.8691358
6331.802094,39.64567901
6337.813332,39.21358025
6343.820637,37.39259259
6349.824009,34.30246914
6355.823454,33.00246914
6361.818974,43.80987654
6367.810571,38.07654321
6373.798249,40.90123457
6379.782011,39.40617284
6385.76186,38.63950617
6391.737799,36.85925926
6397.709832,38.52222222
6403.67796,38.42716049
6409.642187,36.30493827
6415.602516,39.13333333
6421.55895,37.02098765
6427.511493,36.61851852
6433.460146,37.2654321
6439.404914,37.67901235
6445.345798,42.51234568
6451.282803,30.76666667
6457.215931,40.87407407
6463.145185,35.4962963
6469.070567,39.10123457
6474.992082,39.78148148
6480.909732,40.52962963
6486.82352,37.99382716
6492.733449,37.6037037
6498.639521,38.8962963
6504.541741,38.6382716
6510.44011,35.42592593
6516.334632,43.64567901
6522.225309,35.81728395
6528.112146,41.90864198
6533.995144,36.05432099
6539.874306,37.82345679
6545.749637,35.35802469
6551.621137,34.62222222
6557.488811,33.02098765
6563.352661,38.22962963
6569.212691,37.6617284
6575.068902,41.19382716
6580.921299,38.14320988
6586.769883,37.41975309
6592.614659,39.87407407
6598.455628,40.19382716
6604.292794,38.72962963
6610.12616,36.79012346
6615.955728,42.91851852
6621.781502,37.38148148
6627.603484,36.68024691
6633.421677,39.07283951
6639.236084,35.5691358
6645.046709,39.52716049
6650.853553,38.20864198
6656.65662,37.08148148
6662.455912,39.92839506
6668.251433,39.63333333
6674.043186,36.67037037
6679.831172,41.72962963
6685.615396,38.4345679
6691.39586,38.44197531
6697.172566,37.31975309
6702.945518,36.03333333
6708.714719,39.5308642
6714.480171,35.54567901
6720.241877,36.00617284
6725.99984,37.02345679
6731.754063,42.35185185
6737.504549,39.54074074
6743.251301,39.32222222
6748.99432,36.7037037
6754.733611,39.15925926
6760.469176,37.7
6766.201018,41.00123457
6771.92914,37.98518519
6777.653544,40.38641975
6783.374233,36.01234568
6789.09121,36.14074074
6794.804478,41.05308642
6800.51404,36.45308642
6806.219899,32.85802469
6811.922056,36.81604938
6817.620516,36.83950617
6823.315281,39.56419753
6829.006353,42.37037037
6834.693736,37.79012346
6840.377432,44.39753086
6846.057444,40.91851852
6851.733774,30.45555556
6857.406426,40.67530864
6863.075403,42.8691358
6868.740706,37.55925926
6874.40234,40.03950617
6880.060305,36.5382716
6885.714607,42.87901235
6891.365246,34.64567901
6897.012226,37.76790123
6902.65555,45.89135802
6908.29522,35.99753086
6913.931239,33.90617284
6919.56361,35.56790123
6925.192335,33.7654321
6930.817418,36.20987654
6936.43886,36.34691358
6942.056666,40.8
6947.670837,37.28765432
6953.281375,37.01234568
6958.888285,38.9654321
6964.491569,38.1345679
6970.091228,36.07777778
6975.687267,37.11234568
6981.279687,36.32962963
6986.868492,38.68888889
6992.453684,39.08148148
6998.035265,34.89135802
7003.61324,41.33950617
7009.187609,35.82469136
7014.758376,39.70864198
7020.325544,33.32222222
7025.889115,40.82962963
7031.449091,36.34691358
7037.005477,36.02222222
7042.558273,36.33580247
7048.107484,36.84197531
7053.653111,34.21234568
7059.195157,38.49012346
7064.733626,34.58395062
7070.268519,34.59012346
7075.799839,40.48148148
7081.327588,41.97654321
7086.851771,33.81234568
7092.372388,40.65432099
7097.889444,35.60617284
7103.40294,41.58641975
7108.912879,42.87407407
7114.419263,36.18024691
7119.922096,35.4
7125.42138,34.81851852
7130.917118,33.31728395
7136.409311,33.95308642
7141.897964,36.99012346
7147.383078,36.79135802
7152.864656,41.15802469
7158.342701,41.88024691
7163.817215,34.70740741
7169.288201,38.94814815
7174.755661,33.23209877
7180.219599,39.40617284
7185.680016,33.38271605
7191.136916,36.9962963
7196.5903,36.90617284
7202.040172,36.00123457
7207.486534,33.51234568
7212.929389,33.38518519
7218.368738,36.4382716
7223.804586,40.78641975
7229.236934,31.30617284
7234.665785,35.37283951
7240.091141,36.08641975
7245.513006,33.52469136
7250.931381,33.4
7256.34627,32.20246914
7261.757674,34.80864198
7267.165596,36.70864198
7272.570039,35.01481481
7277.971006,36.07530864
7283.368499,36.43950617
7288.76252,33.61975309
7294.153072,34.88024691
7299.540158,31.19876543
7304.92378,33.34197531
7310.303941,35.11728395
7315.680643,31.9
7321.053888,34.24074074
7326.42368,32.22839506
7331.790021,34.43950617
7337.152913,37.06419753
7342.512358,37.51975309
7347.86836,39.85555556
7353.220921,38.01234568
7358.570043,34.97777778
7363.915729,32.5654321
7369.257981,35.59012346
7374.596803,33.23580247
7379.932195,31.85185185
7385.264162,33.92222222
7390.592704,31.89753086
7395.917826,36.37530864
7401.239529,31.88148148
7406.557815,33.25308642
7411.872688,31.58641975
7417.18415,34.49012346
7422.492203,29.43703704
7427.79685,32.84444444
7433.098092,35.53580247
7438.395934,30.61111111
7443.690376,38.11851852
7448.981423,30.82345679
7454.269075,37.54074074
7459.553336,32.55185185
7464.834207,30.65061728
7470.111692,33.22962963
7475.385793,36.10617284
7480.656513,43.46419753
7485.923852,29.19753086
7491.187816,30.00246914
7496.448405,30.83703704
7501.705621,30.99135802
7506.959469,30.11975309
7512.209949,32.7654321
7517.457065,33.11358025
7522.700818,37.28148148
7527.941212,34.17777778
7533.178248,32.89753086
7538.41193,31.35802469
7543.642259,33.00617284
7548.869238,33.08518519
7554.092869,30.88148148
7559.313154,33.3037037
7564.530097,27.62345679
7569.7437,25.88765432
7574.953964,30.54074074
7580.160893,32.64814815
7585.364488,23.85802469
7590.564753,31.88024691
7595.761689,32.33333333
7600.955299,27.58271605
7606.145585,30.85555556
7611.33255,31.07530864
7616.516196,29.6037037
7621.696525,36.95925926
7626.87354,30.07777778
7632.047243,38.14197531
7637.217637,28.33209877
7642.384724,22.84567901
7647.548506,30.60864198
7652.708985,31.16790123
7657.866165,26.03703704
7663.020047,27.22962963
7668.170633,28.84814815
7673.317927,28.32716049
7678.46193,27.47654321
7683.602645,30.86419753
7688.740074,33.26296296
7693.874219,29.88024691
7699.005084,29.99753086
7704.132669,26.90493827
7709.256978,32.98888889
7714.378012,28.17160494
7719.495775,29.74938272
7724.610268,28.81728395
7729.721494,27.99382716
7734.829455,24.95679012
7739.934154,27.2962963
7745.035592,29.45432099
7750.133772,26.72345679
7755.228697,24.81728395
7760.320369,24.17037037
7765.408789,23.5037037
7770.493961,25.29753086
7775.575886,24.34814815
7780.654567,26.1654321
7785.730006,25.42469136
7790.802206,28.22962963
7795.871169,24.9308642
7800.936897,29.6345679
7805.999392,25.02098765
7811.058656,28.29382716
7816.114693,27.02098765
7821.167504,27.25308642
7826.217091,28.16790123
7831.263458,28.65925926
7836.306605,24.61481481
7841.346536,26.53703704
7846.383252,25.48395062
7851.416756,26.53703704
7856.44705,25.22345679
7861.474137,27.65061728
7866.498018,24.38888889
7871.518696,25.45925926
7876.536174,32.01851852
7881.550452,26.46049383
7886.561535,23.39382716
7891.569423,22.32962963
7896.57412,25.10617284
7901.575627,26.17654321
7906.573946,24.88765432
7911.569081,21.60246914
7916.561032,23.94938272
7921.549803,20.97654321
7926.535396,21.34938272
7931.517812,23.60617284
7936.497055,26.51111111
7941.473125,20.13703704
7946.446027,16.2308642
7951.415761,22.45802469
7956.38233,25.72469136
7961.345736,25.93950617
7966.305981,23.67407407
7971.263068,22.38024691
7976.216999,25.09876543
7981.167775,24.48148148
7986.1154,22.33580247
7991.059876,23.74814815
7996.001204,20.5308642
8000.939387,20.05061728
8005.874426,22.11728395
8010.806325,21.02716049
8015.735086,21.04320988
8020.660709,21.27160494
8025.583199,21.9691358
8030.502557,23.9308642
8035.418784,20.55432099
8040.331884,20.86049383
8045.241859,22.07407407
8050.14871,19.05555556
8055.052439,19.98518519
8059.95305,23.17407407
8064.850544,19.65925926
8069.744924,18.9345679
8074.63619,16.34074074
8079.524347,15.28395062
8084.409395,19.48765432
8089.291337,22.61358025
8094.170175,21.7345679
8099.045912,20.04567901
8103.918549,24.47654321
8108.788088,17.92716049
8113.654533,18.55185185
8118.517884,16.98518519
8123.378144,14.94197531
8128.235315,18.82962963
8133.089399,17.06049383
8137.940399,14.94197531
8142.788316,15.09753086
8147.633153,17.4345679
8152.474912,13.7037037
8157.313595,16.75308642
8162.149203,15.5617284
8166.98174,12.39012346
8171.811207,14.58395062
8176.637607,17.26666667
8181.460941,15.47407407
8186.281211,13.2617284
8191.09842,14.29012346
8195.912571,12.05925926
8200.723664,9.497530864
8205.531702,17.85925926
8210.336687,12.46666667
8215.138621,17.52962963
8219.937507,14.90123457
8224.733346,9.850617284
8229.526141,14.69753086
8234.315893,10.42962963
8239.102605,14.29012346
8243.886279,9.965432099
8248.666917,10.6617284
8253.44452,11.39135802
8258.219092,12.20987654
8262.990633,11.70246914
8267.759147,8.92345679
8272.524635,12.02839506
8277.2871,12.62098765
8282.046543,10.81604938
8286.802966,11.7308642
8291.556372,11.86419753
8296.306762,12.52469136
8301.054139,4.602469136
8305.798504,8.788888889
8310.539861,10.05185185
8315.27821,10.90864198
8320.013554,15.70493827
8324.745895,8.887654321
8329.475235,16.4037037
8334.201576,13.02345679
8338.92492,9.832098765
8343.645269,6.903703704
8348.362625,6.286419753
8353.07699,13.51604938
8357.788367,7.985185185
8362.496756,8.291358025
8367.202161,9.409876543
8371.904583,4.361728395
8376.604025,6.04691358
8381.300488,8.64691358
8385.993974,7.190123457
8390.684485,1.782716049
8395.372024,5.6
8400.056593,8.441975309
8404.738192,6.8
8409.416826,4.362962963
8414.092494,5.344444444
8418.7652,6.313580247
8423.434946,12.03703704
8428.101733,4.00617284
8432.765563,6.048148148
8437.426439,6.832098765
8442.084362,5.7
8446.739335,3.192592593
8451.391359,1.895061728
8456.040437,-0.469135802
8460.68657,4.292592593
8465.32976,4.072839506
8469.97001,0.597530864
8474.607321,7.808641975
8479.241695,4.461728395
8483.873135,6.591358025
8488.501642,2.964197531
8493.127219,1.850617284
8497.749866,2.755555556
8502.369587,8.640740741
8506.986383,2.765432099
8511.600257,2.982716049
8516.211209,1.50617284
8520.819242,0.858024691
8525.424359,2.420987654
8530.02656,0.902469136
8534.625849,1.722222222
8539.222226,0.371604938
8543.815694,3.24691358
8548.406255,-0.132098765
8552.993911,-0.248148148
8557.578663,2.487654321
8562.160515,2.028395062
8566.739466,4.313580247
8571.31552,2.309876543
8575.888679,1.859259259
8580.458944,3.801234568
8585.026318,-0.792592593
8589.590802,1.519753086
8594.152398,8.609876543
8598.711108,2.417283951
8603.266934,-2.233333333
8607.819878,1.056790123
8612.369942,-0.030864198
8616.917128,-0.871604938
8621.461438,-1.797530864
8626.002873,6.132098765
8630.541436,5.017283951
8635.077128,-0.324691358
8639.609952,1.149382716
8644.139909,0.361728395
8648.667001,1.634567901
8653.191231,1.732098765
8657.712599,0.218518519
8662.231109,-1.398765432
8666.746761,1.933333333
8671.259558,1.566666667
8675.769501,1.132098765
8680.276593,0.133333333
8684.780836,4.151851852
8689.282231,1.360493827
8693.78078,1.959259259
8698.276485,2.324691358
8702.769348,3.181481481
8707.25937,-7.448148148
8711.746555,-0.807407407
8716.230903,-0.732098765
8720.712416,-4.827160494
8725.191097,-0.75308642
8729.666948,-1.307407407
8734.139969,0.888888889
8738.610163,-5.403703704
8743.077532,0.827160494
8747.542077,1.232098765
8752.003802,-2.27037037
8756.462706,2.517283951
8760.918793,0.702469136
8765.372064,2.525925926
8769.822521,-0.444444444
8774.270166,-0.196296296
8778.715,6.001234568
8783.157026,-0.482716049
8787.596246,0.513580247
8792.03266,3.286419753
8796.466272,-1.414814815
8800.897083,-2.258024691
8805.325094,-1.414814815
8809.750308,-0.192592593
8814.172726,6.203703704
8818.592351,-0.138271605
8823.009184,0.559259259
8827.423226,-0.72345679
8831.834481,1.397530864
8836.242949,0.395061728
8840.648632,0.511111111
8845.051533,-0.281481481
8849.451652,0.987654321
8853.848993,3.967901235
8858.243556,1.601234568
8862.635344,0.34691358
8867.024358,3.94691358
8871.4106,-1.660493827
8875.794072,0.359259259
8880.174776,-0.450617284
8884.552713,3.375308642
8888.927886,2.749382716
8893.300296,0.807407407
8897.669945,0.059259259
8902.036835,-1.330864198
8906.400967,0.998765432
8910.762343,-0.99382716
8915.120966,6.445679012
8919.476837,-2.858024691
8923.829957,-1.207407407
8928.180329,0.920987654
8932.527954,7.697530864
8936.872835,2.181481481
8941.214972,3.027160494
8945.554368,1.924691358
8949.891024,1.460493827
8954.224943,-1.314814815
8958.556126,-0.244444444
8962.884574,-0.987654321
8967.21029,-1.044444444
8971.533275,-0.687654321
8975.853531,2.685185185
8980.17106,-0.059259259
8984.485864,2.766666667
8988.797944,7.390123457
8993.107303,2.033333333
8997.413941,-0.12962963
9001.717861,2.179012346
9006.019064,1.390123457
9010.317552,-1.101234568
9014.613328,-0.091358025
9018.906392,-0.622222222
9023.196746,-0.627160494
9027.484393,-5.717283951
9031.769333,1.122222222
9036.05157,2.70617284
9040.331103,1.835802469
9044.607936,-1.138271605
9048.88207,-3.081481481
9053.153506,-3.230864198
9057.422247,3.679012346
9061.688293,-4.509876543
9065.951648,1.585185185
9070.212312,-3.307407407
9074.470287,-3.728395062
9078.725576,-1.939506173
9082.978179,0.055555556
9087.228099,-3.718518519
9091.475336,-0.677777778
9095.719894,3.965432099
9099.961773,0.92962963
9104.200976,-7.264197531
9108.437504,-0.302469136
9112.671358,-1.425925926
9116.902541,-0.679012346
9121.131054,4.992592593
9125.356899,14.18518519
9129.580078,-1.59382716
9133.800592,4.20617284
9138.018443,-1.304938272
9142.233632,2.255555556
9146.446162,0.069135802
9150.656035,1.171604938
9154.863251,-2.339506173
9159.067812,-0.397530864
9163.269721,-3.995061728
9167.468978,-0.228395062
9171.665586,-0.740740741
9175.859546,0.033333333
9180.050861,1.827160494
9184.239531,1.307407407
9188.425558,-4.233333333
9192.608944,0.158024691
9196.789691,0.817283951
9200.9678,0.92962963
9205.143273,-3.208641975
9209.316112,1.250617284
9213.486318,4.907407407
9217.653894,0.961728395
9221.81884,-0.514814815
9225.981158,0.843209877
9230.140851,0.787654321
9234.297919,0.422222222
9238.452364,1.159259259
9242.604189,0.067901235
9246.753394,-5.032098765
9250.899982,5.948148148
9255.043953,-0.380246914
9259.18531,-1.691358025
9263.324055,1.111111111
9267.460188,0.890123457
9271.593712,2.940740741
9275.724629,-1.656790123
9279.852939,1.380246914
9283.978645,-0.254320988
9288.101748,1.613580247
9292.222249,-2.914814815
9296.340152,0.335802469
9300.455456,2.396296296
9304.568164,2.064197531
9308.678278,4.109876543
9312.785798,-1.6
9316.890727,4.058024691
9320.993067,0.319753086
9325.092818,1.414814815
9329.189983,-1.443209877
9333.284563,-0.448148148
9337.37656,-0.849382716
9341.465975,11.35679012
9345.55281,1.549382716
9349.637067,6.166666667
9353.718747,-0.598765432
9357.797851,5.487654321
9361.874383,0.902469136
9365.948342,-5.556790123
9370.019731,1.471604938
9374.088552,-1.356790123
9378.154805,1.662962963
9382.218493,0.32962963
9386.279617,1.575308642
9390.338179,-2.041975309
9394.39418,-2.67654321
9398.447622,0.260493827
9402.498507,-2.667901235
9406.546835,1.00617284
9410.59261,2.035802469
9414.635831,3.896296296
9418.676502,-0.171604938
9422.714623,2.886419753
9426.750196,-2.795061728
9430.783223,-1.674074074
9434.813705,3.548148148
9438.841644,-0.204938272
9442.867041,-1.302469136
9446.889899,-3.054320988
9450.910218,0.585185185
9454.928,-1.224691358
9458.943246,-1.475308642
9462.955959,1.775308642
9466.96614,2.695061728
9470.973791,0.979012346
9474.978912,3
9478.981506,-1.051851852
9482.981574,-1.869135802
9486.979118,0.390123457
9490.974139,-2.441975309
9494.966639,-4.886419753
9498.956619,2.09382716
9502.944082,3.198765432
9506.929028,-1.165432099
9510.911458,3.514814815
9514.891376,-0.830864198
9518.868782,-0.158024691
9522.843677,5.661728395
9526.816064,-1.250617284
9530.785943,2.174074074
9534.753317,-1.050617284
9538.718187,-0.127160494
9542.680554,-0.716049383
9546.64042,-2.80617284
9550.597787,-0.177777778
9554.552656,0.939506173
9558.505029,3.362962963
9562.454906,-2.934567901
9566.402291,0.687654321
9570.347183,-0.244444444
9574.289585,3.564197531
9578.229499,0.796296296
9582.166925,4.322222222
9586.101866,-0.291358025
9590.034323,0.362962963
9593.964297,1.966666667
9597.89179,5.707407407
9601.816803,0.475308642
9605.739338,4.874074074
9609.659397,-0.42962963
9613.576981,0.675308642
9617.492091,-1.118518519
9621.404729,-0.82962963
9625.314897,0.214814815
9629.222595,1.312345679
9633.127827,-3.964197531
9637.030592,2.734567901
9640.930893,-1.248148148
9644.828731,0.691358025
9648.724107,0.379012346
9652.617024,0.461728395
9656.507482,-1.191358025
9660.395483,-0.944444444
9664.281029,1.908641975
9668.164121,-1.559259259
9672.04476,-1.2
9675.922948,0.140740741
9679.798687,-1.072839506
9683.671978,-5.79382716
9687.542822,-0.986419753
9691.411222,-0.087654321
9695.277178,1.062962963
9699.140692,2.483950617
9703.001765,2.503703704
9706.860399,2.902469136
9710.716596,12.59876543
9714.570356,1.185185185
9718.421682,3.313580247
9722.270575,-1.987654321
9726.117036,-1.1
9729.961067,1.796296296
9733.802669,-0.918518519
9737.641843,-2.275308642
9741.478592,-0.195061728
9745.312917,1.541975309
9749.144819,0.797530864
9752.974299,-1.132098765
9756.801359,-0.916049383
9760.626001,0.3
9764.448226,0.138271605
9768.268035,2.939506173
9772.08543,3.875308642
9775.900413,0.313580247
9779.712984,2.788888889
9783.523146,-0.285185185
9787.330899,5.141975309
9791.136245,1.002469136
9794.939186,-0.891358025
9798.739723,1.261728395
9802.537857,1.192592593
9806.333591,-3.517283951
9810.126924,0.809876543
9813.91786,1.286419753
9817.706399,0.467901235
9821.492542,2.325925926
9825.276292,-1.380246914
9829.057649,0.850617284
9832.836615,1.087654321
9836.613192,1.49382716
9840.38738,-2.34691358
9844.159182,-4.67654321
9847.928598,-0.396296296
9851.695631,-0.341975309
9855.460281,0.083950617
9859.22255,-1.618518519
9862.98244,-1.766666667
9866.739951,-2.035802469
9870.495086,0.297530864
9874.247845,2.339506173
9877.99823,-0.59382716
9881.746243,-2.101234568
9885.491885,-3.465432099
9889.235157,-0.155555556
9892.976061,16.41728395
9896.714598,5.380246914
9900.45077,1.438271605
9904.184577,-2.540740741
9907.916022,1.804938272
9911.645106,-0.075308642
9915.37183,-1.798765432
9919.096195,-1.896296296
9922.818204,0.128395062
9926.537857,0.667901235
9930.255156,-2.128395062
9933.970101,-4.288888889
9937.682696,-2.20617284
9941.39294,0.920987654
9945.100836,2.528395062
9948.806385,1.077777778
9952.509587,-0.020987654
9956.210446,-5.765432099
9959.908961,0.108641975
9963.605134,-0.164197531
9967.298967,-4.291358025
9970.990462,-1.039506173
9974.679618,2.841975309
9978.366439,-1.802469136
9982.050925,4.888888889
9985.733077,0.960493827
9989.412897,-1.30617284
9993.090387,-0.627160494
9996.765547,0.990123457
10000.43838,2.961728395
10004.10889,4.896296296
10007.77707,-7.149382716
10011.44292,15.40493827
10015.10646,-3.598765432
10018.76767,-0.212345679
10022.42657,0.351851852
10026.08314,-1.187654321
10029.7374,-0.813580247
10033.38934,-0.74691358
10037.03897,2.858024691
10040.68629,0.277777778
10044.33129,1.587654321
10047.97399,5.461728395
10051.61437,0.351851852
10055.25245,-0.716049383
10058.88822,-7.341975309
10062.52169,-2.62345679
10066.15285,0.777777778
10069.78171,-1.719753086
10073.40827,3.903703704
10077.03253,-1.197530864
10080.6545,0.180246914
10084.27416,4.943209877
10087.89153,-0.471604938
10091.50661,1.086419753
10095.11939,1.564197531
10098.72989,0.964197531
10102.33809,1.122222222
10105.94401,-1.485185185
10109.54763,2.318518519
10113.14897,2.643209877
10116.74803,-1.458024691
10120.3448,-2.572839506
10123.93929,6.266666667
10127.5315,-0.327160494
10131.12143,2.983950617
10134.70909,0.480246914
10138.29446,-1.866666667
10141.87756,1.545679012
10145.45839,-1.449382716
10149.03694,6.339506173
10152.61323,-1.437037037
10156.18724,3.260493827
10159.75898,-0.445679012
10163.32846,2.640740741
10166.89567,4.303703704
10170.46061,-2.780246914
10174.0233,-1.117283951
10177.58371,2.887654321
10181.14187,4.041975309
10184.69777,-0.586419753
10188.25141,4.972839506
10191.80279,-1.022222222
10195.35192,5.030864198
10198.8988,-0.928395062
10202.44342,-2.643209877
10205.98578,-0.985185185
10209.5259,0.314814815
10213.06377,-0.995061728
10216.59939,-1.559259259
10220.13276,-0.47654321
10223.66389,0.754320988
10227.19278,2.462962963
10230.71942,0.164197531
10234.24382,2.632098765
10237.76598,0.649382716
10241.2859,10.79259259
10244.80358,3.162962963
10248.31903,-0.033333333
10251.83224,2.44691358
10255.34322,-5.820987654
10258.85197,-3.695061728
10262.35848,2.882716049
10265.86276,-1.404938272
10269.36482,2.695061728
10272.86465,-2.886419753
10276.36225,0.858024691
10279.85763,1.008641975
10283.35078,1.135802469
10286.84171,-3.244444444
10290.33043,-0.761728395
10293.81692,-2.420987654
10297.30119,3.151851852
10300.78324,5.42962963
10304.26308,-5.802469136
10307.74071,-2.527160494
10311.21612,-6.239506173
10314.68932,-0.611111111
10318.16031,9.379012346
10321.62908,0.719753086
10325.09566,-0.32962963
10328.56002,0.744444444
10332.02218,0.490123457
10335.48213,1.440740741
10338.93988,-0.07654321
10342.39542,-2.82962963
10345.84877,-0.830864198
10349.29992,-2.680246914
10352.74886,-2.125925926
10356.19561,-2.017283951
10359.64017,1.313580247
10363.08253,1.814814815
10366.5227,-3.680246914
10369.96067,0.059259259
10373.39646,-0.351851852
10376.83005,1.648148148
10380.26146,0.74691358
10383.69067,0.991358025
10387.11771,-0.920987654
10390.54256,0.658024691
10393.96522,-3.454320988
10397.3857,1.403703704
10400.804,1.440740741
10404.22012,2
10407.63407,-2.027160494
10411.04583,1.959259259
10414.45542,1.119753086
10417.86284,-0.744444444
10421.26808,-5.107407407
10424.67114,-2.339506173
10428.07204,1.625925926
10431.47077,-1.711111111
10434.86733,3.24691358
10438.26172,8.027160494
10441.65394,1.635802469
10445.044,1.812345679
10448.4319,-1.451851852
10451.81763,-0.254320988
10455.2012,2.924691358
10458.58261,-0.055555556
10461.96186,1.280246914
10465.33895,5.107407407
10468.71389,-1.014814815
10472.08667,4.254320988
10475.4573,-0.561728395
10478.82577,2.239506173
10482.1921,5.835802469
10485.55627,-2.161728395
10488.91829,1.107407407
10492.27817,-2.111111111
10495.63589,-0.414814815
10498.99147,0.250617284
10502.34491,-0.059259259
10505.6962,-1.243209877
10509.04535,6.044444444
10512.39236,0.866666667
10515.73723,-0.792592593
10519.07996,-0.807407407
10522.42056,1.988888889
10525.75902,2.672839506
10529.09534,2.202469136
10532.42953,-2.672839506
10535.76158,3.302469136
10539.09151,0.798765432
10542.4193,-0.741975309
10545.74496,2.086419753
10549.0685,-0.687654321
10552.38991,-1.283950617
10555.70919,3.898765432
10559.02635,-3.1
10562.34139,-0.017283951
10565.6543,3.797530864
10568.9651,-1.187654321
10572.27377,0.864197531
10575.58033,1.369135802
10578.88476,-2.44691358
10582.18708,-0.57654321
10585.48729,-0.464197531
10588.78538,1.488888889
10592.08136,-0.079012346
10595.37523,4.361728395
10598.66698,1.130864198
10601.95663,0.809876543
10605.24417,1.495061728
10608.5296,-2.758024691
10611.81293,1.675308642
10615.09415,-0.020987654
10618.37327,2.943209877
10621.65029,1.195061728
10624.9252,2.24691358
10628.19802,5.658024691
10631.46874,-1.812345679
10634.73735,1.054320988
10638.00388,-2.781481481
10641.2683,-1.248148148
10644.53064,0.325925926
10647.79087,1.949382716
10651.04902,-3.756790123
10654.30508,-0.424691358
10657.55904,3.581481481
10660.81092,-0.728395062
10664.06071,-2.332098765
10667.30842,-3.72345679
10670.55404,2.225925926
10673.79757,1.313580247
10677.03903,-0.986419753
10680.2784,-1.748148148
10683.51569,3.434567901
10686.7509,-0.148148148
10689.98403,2.212345679
10693.21509,1.462962963
10696.44406,1.088888889
10699.67097,1.414814815
10702.8958,0.138271605
10706.11856,3.869135802
10709.33924,1.135802469
10712.55786,-1.651851852
10715.77441,1.688888889
10718.98888,2.365432099
10722.2013,0.192592593
10725.41164,0.225925926
10728.61992,-3.174074074
10731.82614,-2.775308642
10735.03029,-9.112345679
10738.23239,-0.375308642
10741.43242,-2.290123457
10744.63039,0.174074074
10747.82631,2.603703704
10751.02017,2.12345679
10754.21197,1.733333333
10757.40172,-2.635802469
10760.58941,1.414814815
10763.77505,0.27037037
10766.95864,-1.843209877
10770.14018,-0.77037037
10773.31967,0.901234568
10776.49712,-7.172839506
10779.67251,3.582716049
10782.84586,-4.02345679
10786.01717,0.738271605
10789.18643,2.2
10792.35365,-2
10795.51882,-0.882716049
10798.68196,-2.087654321
10801.84306,1.7
10805.00212,3.782716049
10808.15914,1.790123457
10811.31412,-0.504938272
10814.46707,0.045679012
10817.61799,-1.317283951
10820.76688,3.117283951
10823.91373,-0.225925926
10827.05855,-2.244444444
10830.20134,-1.801234568
10833.34211,-0.595061728
10836.48084,3.904938272
10839.61755,2.07654321
10842.75224,1.213580247
10845.8849,1.222222222
10849.01554,0.554320988
10852.14416,-1.32962963
10855.27075,-0.801234568
10858.39533,3.101234568
10861.51788,-4.574074074
10864.63842,2.182716049
10867.75695,0.22962963
10870.87345,0.72962963
10873.98795,1.609876543
10877.10043,5.033333333
10880.21089,-2.839506173
10883.31935,-1.620987654
10886.4258,-1.743209877
10889.53023,1.509876543
10892.63266,-3.008641975
10895.73309,-1.344444444
10898.8315,1.502469136
10901.92791,1.292592593
10905.02232,-1.359259259
10908.11473,0.058024691
10911.20513,-0.501234568
10914.29353,1.822222222
10917.37994,1.459259259
10920.46434,2.098765432
10923.54675,-2.324691358
10926.62716,0.513580247
10929.70558,2.249382716
10932.782,2.317283951
10935.85643,-6.644444444
10938.92887,-0.203703704
10941.99931,0.455555556
10945.06777,-0.116049383
10948.13423,0.424691358
10951.19871,-0.039506173
10954.26121,0.172839506
10957.32171,0.783950617
10960.38023,3.419753086
10963.43677,1.698765432
10966.49133,-1.591358025
10969.5439,0.712345679
10972.59449,-0.266666667
10975.64311,3.932098765
10978.68974,-0.871604938
10981.7344,1.288888889
10984.77708,4.141975309
10987.81778,-6.383950617
10990.85651,-1.397530864
10993.89327,-2.524691358
10996.92806,-1.025925926
10999.96087,0.47654321
11002.99172,2.048148148
11006.02059,1.811111111
11009.0475,-2.104938272
11012.07244,0.733333333
11015.09541,1.134567901
11018.11642,-2.57654321
11021.13546,13.61481481
11024.15254,2.361728395
11027.16766,-0.377777778
11030.18082,-4.083950617
11033.19202,-5.238271605
11036.20126,-1.934567901
11039.20854,-0.008641975
11042.21386,-2.069135802
11045.21723,1.477777778
11048.21864,-0.904938272
11051.2181,0.291358025
11054.21561,1.124691358
11057.21116,-0.401234568
11060.20477,-2.439506173
11063.19642,3.779012346
11066.18613,-4.033333333
11069.17389,-0.614814815
11072.1597,2.355555556
11075.14356,-0.238271605
11078.12548,-0.091358025
11081.10546,7.838271605
11084.08349,2.234567901
11087.05958,4.107407407
11090.03373,6.522222222
11093.00594,-1.333333333
11095.97622,-3.771604938
11098.94455,-0.481481481
11101.91095,0.096296296
11104.87541,-0.298765432
11107.83794,-0.167901235
11110.79853,-1.301234568
11113.75719,-5.192592593
11116.71392,-1.901234568
11119.66872,-2.127160494
11122.62159,-0.491358025
11125.57253,1.575308642
11128.52154,1.544444444
11131.46863,-4.29382716
11134.41379,-1.812345679
11137.35702,-1.566666667
11140.29833,2.782716049
11143.23772,-1.787654321
11146.17519,-1.475308642
11149.11073,0.618518519
11152.04436,0.633333333
11154.97606,-1.667901235
11157.90585,2.261728395
11160.83372,0.449382716
11163.75968,-2.150617284
11166.68372,-2.07654321
11169.60584,3.344444444
11172.52606,1.149382716
11175.44436,-0.722222222
11178.36075,1.848148148
11181.27523,1.348148148
11184.1878,-0.843209877
11187.09846,2.181481481
11190.00722,-0.685185185
11192.91407,0.851851852
11195.81901,4.166666667
11198.72205,9.191358025
11201.62318,1.741975309
11204.52242,0.35308642
11207.41975,-0.69382716
11210.31518,0.060493827
11213.20872,3.713580247
11216.10035,-5.469135802
11218.99009,-5.333333333
11221.87793,-0.637037037
11224.76387,1.571604938
11227.64792,0.335802469
11230.53008,-0.527160494
11233.41034,-3.682716049
11236.28871,2.328395062
11239.16519,-1.764197531
11242.03978,-0.798765432
11244.91248,1.941975309
11247.7833,-1.227160494
11250.65222,-0.908641975
11253.51927,-0.498765432
11256.38442,-0.807407407
11259.24769,2.182716049
11262.10908,0.058024691
11264.96859,-8.169135802
11267.82621,0.730864198
11270.68196,-0.671604938
11273.53582,0.118518519
11276.38781,0.538271605
11279.23792,4.361728395
11282.08615,-1.733333333
11284.93251,-5.171604938
11287.77699,-0.530864198
11290.6196,-0.818518519
11293.46033,2.027160494
11296.29919,5.67037037
11299.13619,2.951851852
11301.97131,0.086419753
11304.80456,-2.220987654
11307.63595,4.343209877
11310.46547,2.140740741
11313.29312,7.271604938
11316.11891,-1.412345679
11318.94283,0.850617284
11321.76489,-3.02962963
11324.58508,-2.792592593
11327.40342,7.338271605
11330.21989,-0.319753086
11333.0345,3.227160494
11335.84726,-3.130864198
11338.65816,4.745679012
11341.4672,-0.812345679
11344.27438,0.922222222
11347.07971,1.744444444
11349.88319,-0.491358025
11352.68481,-5.32962963
11355.48458,-1.879012346
11358.28249,-0.041975309
11361.07856,1.611111111
11363.87278,-0.240740741
11366.66515,0.092592593
11369.45567,-0.307407407
11372.24434,0.860493827
11375.03117,1.155555556
11377.81615,-0.185185185
11380.59929,2.171604938
11383.38059,2.544444444
11386.16004,-0.880246914
11388.93766,-0.648148148
11391.71343,0.225925926
11394.48736,0.24691358
11397.25945,0.517283951
11400.02971,-0.737037037
11402.79813,1.044444444
11405.56471,-1.592592593
11408.32946,5.054320988
11411.09237,-2.007407407
11413.85345,0.402469136
11416.6127,0.990123457
11419.37012,1.162962963
11422.1257,-2.89382716
11424.87946,-1.566666667
11427.63139,-0.134567901
11430.38149,-0.814814815
11433.12976,1.698765432
11435.87621,-0.119753086
11438.62083,-3.524691358
11441.36362,1.207407407
11444.1046,-0.496296296
11446.84375,1.313580247
11449.58108,2.422222222
11452.31659,-3.333333333
11455.05028,2.102469136
11457.78215,-0.396296296
11460.5122,3.337037037
11463.24044,3.718518519
11465.96685,0.688888889
11468.69146,2.659259259
11471.41425,-1.339506173
11474.13522,-4.404938272
11476.85439,-0.945679012
11479.57174,0.216049383
11482.28728,0.767901235
11485.00101,-0.145679012
11487.71293,-1.733333333
11490.42304,6.417283951
11493.13134,-2.224691358
11495.83784,-2.209876543
11498.54254,-3.601234568
11501.24542,0.032098765
11503.94651,-0.535802469
11506.64579,-0.371604938
11509.34327,-0.301234568
11512.03894,0.441975309
11514.73282,2.448148148
11517.4249,7.52345679
11520.11518,-2.056790123
11522.80366,2.448148148
11525.49034,-0.84691358
11528.17523,-2.14691358
11530.85832,-1.480246914
11533.53962,1.096296296
11536.21913,0.809876543
11538.89684,0.549382716
11541.57276,-0.7
11544.24689,-0.356790123
11546.91923,-0.817283951
11549.58978,0.874074074
11552.25854,2.743209877
11554.92551,-2.314814815
11557.5907,2.32962963
11560.2541,-1.058024691
11562.91572,0.708641975
11565.57555,2.691358025
11568.2336,-0.295061728
11570.88987,2.374074074
11573.54436,0.57037037
11576.19706,-4.890123457
11578.84799,-27.34444444
11581.49713,-19.44197531
11584.1445,-10.74938272
11586.79009,-21.07283951
11589.43391,-27.80123457
11592.07595,-23.70740741
11594.71621,-26.84567901
11597.3547,-23.06790123
11599.99142,-33.24197531
11602.62637,-27.15185185
11605.25954,-23.4
11607.89095,-19.21604938
11610.52058,-19.29135802
11613.14845,-15.57654321
11615.77455,-25.9345679
11618.39888,-26.52962963
11621.02144,-11.51975309
11623.64224,-20.49012346
11626.26128,-21.22839506
11628.87855,-22.08024691
11631.49406,-17.08518519
11634.1078,-21.71111111
11636.71979,-26.53950617
11639.33001,-23.99135802
11641.93848,-20.72962963
11644.54518,-18.1617284
11647.15013,-16.45308642
11649.75332,-18.27160494
11652.35476,-17.69506173
11654.95444,-18.92098765
11657.55236,-37.15061728
11660.14853,-23.2617284
11662.74295,-28.48518519
11665.33562,-21.3382716
11667.92653,-24.29135802
11670.5157,-18.3617284
11673.10311,-14.41851852
11675.68878,-23.51111111
11678.2727,-17.61111111
11680.85487,-11.79876543
11683.4353,-18.30740741
11686.01398,-27.1691358
11688.59091,-24.25925926
11691.1661,-18.4037037
11693.73955,-13.5308642
11696.31126,-21.14197531
11698.88122,-19.77407407
11701.44944,-26.55679012
11704.01593,-12.80123457