Raman shift (cm-1),Intensity
66.759,20.190672
69.956,20.021175
73.154,19.99473
76.351,20.025658
79.549,20.062851
82.746,20.07765
85.944,20.092981
89.142,20.128771
92.339,20.139721
95.537,20.130093
98.734,20.156921
101.932,20.151834
105.129,20.182798
108.327,20.188984
111.524,20.232119
114.722,20.276339
117.92,20.284513
121.117,20.324404
124.315,20.335457
127.512,20.398899
130.71,20.416517
133.907,20.459871
137.105,20.443188
140.302,20.46669
143.5,20.495506
146.698,20.509548
149.895,20.575714
153.093,20.666573
156.29,20.702566
159.488,20.784246
162.685,20.804567
165.883,20.905521
169.08,21.004452
172.278,21.110886
175.476,21.234406
178.673,21.37961
181.871,21.591047
185.068,21.892563
188.266,22.245937
191.463,22.675632
194.661,23.179203
197.858,23.842236
201.056,24.553339
204.254,25.347328
207.451,26.280262
210.649,27.32666
213.846,28.446594
217.044,29.605392
220.241,30.543442
223.439,31.694714
226.636,32.748287
229.834,33.661713
233.032,34.540848
236.229,35.450089
239.427,36.271652
242.624,36.916756
245.822,37.571548
249.019,38.170372
252.217,38.709705
255.415,38.9785
258.612,39.416958
261.81,39.725452
265.007,40.019279
268.205,40.382542
271.402,40.762486
274.6,41.15564
277.797,41.621311
280.995,41.877594
284.193,42.421619
287.39,42.848225
290.588,43.216774
293.785,43.650833
296.983,44.173096
300.18,44.840508
303.378,45.739204
306.575,46.829895
309.773,48.022537
312.971,49.846367
316.168,52.095406
319.366,55.274937
322.563,59.491398
325.761,64.618332
328.958,71.359489
332.156,79.923592
335.353,90.166016
338.551,102.14942
341.749,116.06413
344.946,131.59508
348.144,148.11478
351.341,166.67778
354.539,186.52696
357.736,205.61633
360.934,224.68854
364.131,244.55843
367.329,264.48697
370.527,283.1806
373.724,300.28363
376.922,315.71362
380.119,327.78854
383.317,340.30334
386.514,349.94186
389.712,359.43719
392.909,367.95181
396.107,375.21286
399.305,381.56799
402.502,386.98807
405.7,391.79181
408.897,397.45435
412.095,403.13556
415.292,406.45752
418.49,410.10141
421.687,414.36755
424.885,417.41327
428.083,419.53073
431.28,420.61609
434.478,421.19312
437.675,421.65771
440.873,421.83212
444.07,422.091
447.268,418.92758
450.466,417.85202
453.663,414.64191
456.861,411.33734
460.058,409.14008
463.256,406.77682
466.453,404.61874
469.651,401.76114
472.848,397.63617
476.046,393.50143
479.244,386.6304
482.441,376.45868
485.639,365.38181
488.836,353.71185
492.034,341.70953
495.231,328.19907
498.429,311.85886
501.626,293.92291
504.824,275.91196
508.022,257.11838
511.219,236.65176
514.417,217.38823
517.614,199.5314
520.812,184.83066
524.009,171.92776
527.207,161.39384
530.404,151.84192
533.602,143.87152
536.8,136.91484
539.997,130.84573
543.195,126.17711
546.392,122.46048
549.59,118.66098
552.787,115.21452
555.985,112.16621
559.182,109.40913
562.38,107.51443
565.578,105.70007
568.775,104.35048
571.973,103.82841
575.17,103.51328
578.368,103.25986
581.565,103.52523
584.763,103.78986
587.96,103.85581
591.158,103.59839
594.356,102.94356
597.553,102.30565
600.751,101.13448
603.948,99.718025
607.146,98.066536
610.343,96.053345
613.541,93.49231
616.738,90.437996
619.936,87.201508
623.134,83.886513
626.331,80.809563
629.529,77.331573
632.726,74.773598
635.924,71.994217
639.121,70.014481
642.319,68.300789
645.516,66.691658
648.714,65.546684
651.912,64.616013
655.109,63.509853
658.307,62.578384
661.504,61.811626
664.702,61.221012
667.899,60.797665
671.097,60.424503
674.295,60.357182
677.492,59.882519
680.69,59.617096
683.887,59.537422
687.085,59.410721
690.282,59.185394
693.48,58.965206
696.677,58.923031
699.875,59.117191
703.073,59.159889
706.27,59.231861
709.468,59.46093
712.665,59.60339
715.863,59.806686
719.06,60.129025
722.258,60.383881
725.455,60.729706
728.653,61.299404
731.851,61.886024
735.048,62.337521
738.246,62.903065
741.443,63.680256
744.641,64.837982
747.838,66.187828
751.036,68.576675
754.233,71.591629
757.431,75.446556
760.629,79.631943
763.826,84.176025
767.024,88.913513
770.221,93.604256
773.419,98.062309
776.616,102.24638
779.814,106.86337
783.011,111.04554
786.209,114.45851
789.407,117.36532
792.604,119.77554
795.802,121.23819
798.999,122.03983
802.197,121.70957
805.394,120.65925
808.592,119.08063
811.789,117.08789
814.987,114.99308
818.185,112.62295
821.382,109.89215
824.58,106.95039
827.777,103.0758
830.975,99.768616
834.172,96.381638
837.37,92.47934
840.567,88.264565
843.765,83.932358
846.963,79.586662
850.16,75.343147
853.358,71.327362
856.555,67.485512
859.753,63.715714
862.95,60.37394
866.148,57.729561
869.346,55.101265
872.543,52.861042
875.741,51.181992
878.938,49.765427
882.136,48.612072
885.333,47.515785
888.531,46.503517
891.728,45.700939
894.926,45.095715
898.124,44.459198
901.321,43.722
904.519,43.16901
907.716,42.638969
910.914,42.131798
914.111,41.523098
917.309,41.103733
920.506,40.432549
923.704,39.68486
926.902,39.213814
930.099,38.566895
933.297,38.021755
936.494,37.473049
939.692,36.956184
942.889,36.690559
946.087,36.41045
949.284,35.99015
952.482,35.670353
955.68,35.505611
958.877,35.179695
962.075,35.086742
965.272,34.894684
968.47,34.544807
971.667,34.32478
974.865,34.077553
978.062,33.909645
981.26,33.787174
984.458,33.731983
987.655,33.827251
990.853,33.958179
994.05,34.060555
997.248,34.360497
1000.445,34.816925
1003.643,35.547985
1006.84,36.437248
1010.038,37.405891
1013.236,38.539246
1016.433,40.013783
1019.631,41.43409
1022.828,42.904392
1026.026,44.503799
1029.223,46.195034
1032.421,47.888306
1035.618,49.628925
1038.816,51.367378
1042.014,52.794426
1045.211,54.326038
1048.409,55.830692
1051.606,56.697533
1054.804,57.639626
1058.001,58.174374
1061.199,58.306755
1064.397,58.215446
1067.594,57.909058
1070.792,57.066349
1073.989,55.879433
1077.187,54.640301
1080.384,53.299061
1083.582,51.714828
1086.779,49.925995
1089.977,48.101246
1093.175,46.406467
1096.372,44.523804
1099.57,42.848816
1102.767,41.131584
1105.965,39.630966
1109.162,38.508419
1112.36,37.369553
1115.557,36.432751
1118.755,35.779766
1121.953,35.317406
1125.15,35.152184
1128.348,35.177216
1131.545,35.223011
1134.743,35.493343
1137.94,36.052734
1141.138,36.474583
1144.335,36.971004
1147.533,37.739498
1150.731,38.113068
1153.928,38.846951
1157.126,39.454193
1160.323,39.860535
1163.521,40.355808
1166.718,40.704903
1169.916,41.203373
1173.113,41.516529
1176.311,41.643478
1179.509,41.898903
1182.706,42.163242
1185.904,42.294056
1189.101,42.404171
1192.299,42.411129
1195.496,42.296345
1198.694,41.912247
1201.891,41.765835
1205.089,41.554882
1208.287,41.235466
1211.484,41.000751
1214.682,40.435776
1217.879,40.075611
1221.077,39.437611
1224.274,38.756851
1227.472,38.103882
1230.669,37.349865
1233.867,36.481178
1237.065,35.664406
1240.262,34.887833
1243.46,34.005699
1246.657,33.063156
1249.855,32.094593
1253.052,31.170523
1256.25,30.241398
1259.447,29.378056
1262.645,28.68074
1265.843,27.934082
1269.04,27.108664
1272.238,26.605333
1275.435,26.125093
1278.633,25.675865
1281.83,25.294708
1285.028,24.896788
1288.226,24.57069
1291.423,24.411579
1294.621,24.277966
1297.818,24.082825
1301.016,23.92802
1304.213,23.777712
1307.411,23.558897
1310.608,23.424952
1313.806,23.278097
1317.004,23.14727
1320.201,22.944376
1323.399,22.955927
1326.596,22.844757
1329.794,22.732203
1332.991,22.608688
1336.189,22.521046
1339.386,22.478989
1342.584,22.427046
1345.782,22.352428
1348.979,22.289221
1352.177,22.244345
1355.374,22.189592
1358.572,22.143217
1361.769,22.152788
1364.967,22.173597
1368.164,22.168898
1371.362,22.241714
1374.56,22.201765
1377.757,22.188982
1380.955,22.178289
1384.152,22.208828
1387.35,22.200138
1390.547,22.115294
1393.745,22.131218
1396.942,22.153107
1400.14,22.096638
1403.338,22.070436
1406.535,22.076668
1409.733,22.103355
1412.93,22.149601
1416.128,22.152811
1419.325,22.110899
1422.523,22.095203
1425.72,22.124001
1428.918,22.155731
1432.116,22.150621
1435.313,22.168867
1438.511,22.195017
1441.708,22.13941
1444.906,22.139006
1448.103,22.205711
1451.301,22.264015
1454.498,22.298105
1457.696,22.294765
1460.894,22.327614
1464.091,22.407925
1467.289,22.48801
1470.486,22.495037
1473.684,22.530407
1476.881,22.58017
1480.079,22.634699
1483.277,22.696663
1486.474,22.743732
1489.672,22.78438
1492.869,22.817451
1496.067,22.826647
1499.264,22.864426
1502.462,22.920664
1505.659,22.923845
1508.857,23.041931
1512.055,23.015409
1515.252,23.119181
1518.45,23.175449
1521.647,23.347513
1524.845,23.451136
1528.042,23.582325
1531.24,23.743847
1534.437,23.831358
1537.635,24.085077
1540.833,24.349152
1544.03,24.572424
1547.228,24.815825
1550.425,25.072453
1553.623,25.304462
1556.82,25.575226
1560.018,25.829231
1563.215,26.0714
1566.413,26.312124
1569.611,26.436789
1572.808,26.570402
1576.006,26.719429
1579.203,26.829174
1582.401,26.874836
1585.598,26.961159
1588.796,26.96084
1591.993,26.987089
1595.191,26.923687
1598.389,27.013342
1601.586,26.864759
1604.784,26.823875
1607.981,26.806261
1611.179,26.811359
1614.376,26.672783
1617.574,26.500345
1620.771,26.438393
1623.969,26.324179
1627.167,26.155806
1630.364,26.039675
1633.562,25.942312
1636.759,25.829332
1639.957,25.652822
1643.154,25.384027
1646.352,25.167681
1649.549,25.037098
1652.747,24.834858
1655.945,24.577154
1659.142,24.287142
1662.34,24.071152
1665.537,23.829655
1668.735,23.661631
1671.932,23.435017
1675.13,23.245461
1678.328,22.914614
1681.525,22.622667
1684.723,22.431364
1687.92,22.192419
1691.118,22.067083
1694.315,21.796234
1697.513,21.607901
1700.71,21.349222
1703.908,21.098534
1707.106,20.955984
1710.303,20.789555
1713.501,20.637918
1716.698,20.498089
1719.896,20.421961
1723.093,20.284904
1726.291,20.183867
1729.488,20.102196
1732.686,19.985367
1735.884,19.944885
1739.081,19.898741
1742.279,19.808205
1745.476,19.774593
1748.674,19.738255
1751.871,19.706593
1755.069,19.671368
1758.266,19.605202
1761.464,19.584078
1764.662,19.59313
1767.859,19.577198
1771.057,19.559422
1774.254,19.504389
1777.452,19.479977
1780.649,19.437122
1783.847,19.384336
1787.044,19.369095
1790.242,19.424585
1793.44,19.390789
1796.637,19.393009
1799.835,19.324989
1803.032,19.30162
1806.23,19.285246
1809.427,19.267426
1812.625,19.259764
1815.822,19.268326
1819.02,19.266138
1822.218,19.247108
1825.415,19.21191
1828.613,19.157381
1831.81,19.162449
1835.008,19.190304
1838.205,19.167772
1841.403,19.166807
1844.6,19.187872
1847.798,19.173124
1850.996,19.147694
1854.193,19.147257
1857.391,19.166683
1860.588,19.107628
1863.786,19.101898
1866.983,19.106569
1870.181,19.155872
1873.378,19.140707
1876.576,19.074623
1879.774,19.052265
1882.971,19.091909
1886.169,19.081047
1889.366,19.069057
1892.564,19.07485
1895.761,19.04777
1898.959,19.089083
1902.157,19.054399
1905.354,19.039083
1908.552,18.986662
1911.749,19.027506
1914.947,19.03557
1918.144,18.983021
1921.342,19.008648
1924.539,18.985653
1927.737,19.019451
1930.935,18.991503
1934.132,18.960241
1937.33,19.002346
1940.527,18.998503
1943.725,19.010294
1946.922,19.036844
1950.12,19.004711
1953.317,18.987026
1956.515,19.012926
1959.713,19.007694
1962.91,19.032612
1966.108,19.047358
1969.305,19.056044
1972.503,19.082916
1975.7,19.069639
1978.898,19.083654
1982.095,19.10733
1985.293,19.104177
1988.491,19.152822
1991.688,19.16205
1994.886,19.117619
1998.083,19.129427
2001.281,19.125511
2004.478,19.120237
2007.676,19.067665
2010.873,19.102924
2014.071,19.107632
2017.269,19.076935
2020.466,19.076405
2023.664,19.099016
2026.861,19.096903
2030.059,19.131214
2033.256,19.128428
2036.454,19.10557
2039.651,19.044472
2042.849,19.053257
2046.047,19.082144
2049.244,19.065958
2052.442,19.011486
2055.639,19.016327
2058.837,19.041067
2062.034,18.94146
2065.232,18.981438
2068.429,18.963772
2071.627,19.016102
2074.825,18.993595
2078.022,18.957754
2081.22,18.98749
2084.417,18.973463
2087.615,18.992128
2090.812,19.040054
2094.01,19.026373
2097.208,18.987862
2100.405,18.95455
2103.603,19.009216
2106.8,19.00371
2109.998,19.026295
2113.195,19.047817
2116.393,19.053379
2119.59,19.059359
2122.788,19.082535
2125.986,19.126478
2129.183,19.147097
2132.381,19.150917
2135.578,19.149345
2138.776,19.16436
2141.973,19.207912
2145.171,19.211767
2148.368,19.188366
2151.566,19.221617
2154.764,19.217085
2157.961,19.195549
2161.159,19.214176
2164.356,19.216774
2167.554,19.205452
2170.751,19.227226
2173.949,19.250586
2177.146,19.266718
2180.344,19.253441
2183.542,19.221329
2186.739,19.241478
2189.937,19.228447
2193.134,19.204994
2196.332,19.226851
2199.529,19.209822
2202.727,19.178307
2205.924,19.15555
2209.122,19.16535
2212.32,19.191566
2215.517,19.168919
2218.715,19.14723
2221.912,19.116819
2225.11,19.09186
2228.307,19.11322
2231.505,19.11482
2234.702,19.090374
2237.9,19.066608
2241.098,19.076164
2244.295,19.086214
2247.493,19.091211
2250.69,19.104366
2253.888,19.101965
2257.085,19.093071
2260.283,19.121035
2263.48,19.125061
2266.678,19.116135
2269.876,19.15716
2273.073,19.133394
2276.271,19.085724
2279.468,19.102819
2282.666,19.104534
2285.863,19.110495
2289.061,19.131729
2292.259,19.109758
2295.456,19.132399
2298.654,19.143011
2301.851,19.152861
2305.049,19.156612
2308.246,19.086857
2311.444,19.086206
2314.641,19.105621
2317.839,19.08157
2321.037,19.161461
2324.234,19.181416
2327.432,19.168495
2330.629,19.127554
2333.827,19.161148
2337.024,19.167555
2340.222,19.146416
2343.419,19.101046
2346.617,19.176411
2349.815,19.183641
2353.012,19.176094
2356.21,19.170923
2359.407,19.194839
2362.605,19.211819
2365.802,19.238867
2369,19.207237
2372.197,19.190886
2375.395,19.179415
2378.593,19.231718
2381.79,19.175346
2384.988,19.140444
2388.185,19.186975
2391.383,19.157146
2394.58,19.118126
2397.778,19.148281
2400.975,19.14603
2404.173,19.101295
2407.371,19.085432
2410.568,19.08049
2413.766,19.058723
2416.963,19.049091
2420.161,19.049431
2423.358,19.039965
2426.556,19.01313
2429.753,18.995644
2432.951,18.989977
2436.149,18.970436
2439.346,18.953331
2442.544,18.959242
2445.741,18.936914
2448.939,18.915337
2452.136,18.894913
2455.334,18.899551
2458.531,18.905491
2461.729,18.886013
2464.927,18.904455
2468.124,18.883675
2471.322,18.817072
2474.519,18.822437
2477.717,18.794514
2480.914,18.789227
2484.112,18.772358
2487.309,18.741907
2490.507,18.729786
2493.705,18.720961
2496.902,18.716154
2500.1,18.683823
2503.297,18.655556
2506.495,18.661283
2509.692,18.673288
2512.89,18.639833
2516.088,18.632318
2519.285,18.574625
2522.483,18.558899
2525.68,18.542391
2528.878,18.525715
2532.075,18.537548
2535.273,18.511753
2538.47,18.525539
2541.668,18.518595
2544.866,18.496826
2548.063,18.520603
2551.261,18.481884
2554.458,18.519081
2557.656,18.519146
2560.853,18.519201
2564.051,18.465366
2567.248,18.501711
2570.446,18.498627
2573.644,18.46059
2576.841,18.491756
2580.039,18.464056
2583.236,18.421772
2586.434,18.415543
2589.631,18.441015
2592.829,18.450924
2596.026,18.444365
2599.224,18.467936
2602.422,18.484106
2605.619,18.464502
2608.817,18.472008
2612.014,18.41576
2615.212,18.448315
2618.409,18.423197
2621.607,18.418516
2624.804,18.450127
2628.002,18.44162
2631.2,18.456915
2634.397,18.453018
2637.595,18.485376
2640.792,18.467844
2643.99,18.437872
2647.187,18.427612
2650.385,18.439915
2653.582,18.483269
2656.78,18.470119
2659.978,18.460417
2663.175,18.422365
2666.373,18.429422
2669.57,18.448408
2672.768,18.417841
2675.965,18.432491
2679.163,18.449987
2682.36,18.438559
2685.558,18.40221
2688.756,18.434093
2691.953,18.461639
2695.151,18.431261
2698.348,18.423409
2701.546,18.424742
2704.743,18.439482
2707.941,18.430326
2711.139,18.420589
2714.336,18.395779
2717.534,18.412033
2720.731,18.427923
2723.929,18.403374
2727.126,18.420708
2730.324,18.397373
2733.521,18.404398
2736.719,18.434345
2739.917,18.474535
2743.114,18.424393
2746.312,18.418285
2749.509,18.438688
2752.707,18.457335
2755.904,18.424515
2759.102,18.420437
2762.299,18.373758
2765.497,18.432352
2768.695,18.423607
2771.892,18.43656
2775.09,18.432411
2778.287,18.427765
2781.485,18.377134
2784.682,18.426991
2787.88,18.447861
2791.077,18.424501
2794.275,18.427553
2797.473,18.430321
2800.67,18.413874
2803.868,18.435816
2807.065,18.44997
2810.263,18.430437
2813.46,18.411184
2816.658,18.439547
2819.855,18.43996
2823.053,18.41688
2826.251,18.416443
2829.448,18.422558
2832.646,18.407167
2835.843,18.402748
2839.041,18.377569
2842.238,18.392128
2845.436,18.399448
2848.633,18.380516
2851.831,18.418455
2855.029,18.406746
2858.226,18.411016
2861.424,18.442085
2864.621,18.451342
2867.819,18.345446
2871.016,18.437086
2874.214,18.425285
2877.411,18.433609
2880.609,18.460272
2883.807,18.453739
2887.004,18.398161
2890.202,18.398226
2893.399,18.395823
2896.597,18.389532
2899.794,18.386372
2902.992,18.404346
2906.19,18.376505
2909.387,18.429422
2912.585,18.411104
2915.782,18.414059
2918.98,18.405079
2922.177,18.391195
2925.375,18.41954
2928.572,18.426357
2931.77,18.435884
2934.968,18.429323
2938.165,18.426367
2941.363,18.427574
2944.56,18.431389
2947.758,18.434641
2950.955,18.40974
2954.153,18.358917
2957.35,18.397335
2960.548,18.400925
2963.746,18.449959
2966.943,18.403431
2970.141,18.399961
2973.338,18.424019
2976.536,18.420473
2979.733,18.421329
2982.931,18.412973
2986.128,18.383291
2989.326,18.370991
2992.524,18.39328
2995.721,18.383682
2998.919,18.384481
3002.116,18.378939
3005.314,18.377243
3008.511,18.373457
3011.709,18.381273
3014.906,18.381573
3018.104,18.401827
3021.302,18.392267
3024.499,18.413055
3027.697,18.39546
3030.894,18.360533
3034.092,18.375233
3037.289,18.404873
3040.487,18.376192
3043.684,18.418724
3046.882,18.354485
3050.08,18.404146
3053.277,18.355396
3056.475,18.39328
3059.672,18.389275
3062.87,18.396278
3066.067,18.345829
3069.265,18.371046
3072.462,18.378054
3075.66,18.342257
3078.858,18.376066
3082.055,18.384186
3085.253,18.365353
3088.45,18.380224
3091.648,18.361115
3094.845,18.387051
3098.043,18.393768
3101.24,18.347214
3104.438,18.368961
3107.636,18.35833
3110.833,18.358578
3114.031,18.381613
3117.228,18.351589
3120.426,18.420252
3123.623,18.368984
3126.821,18.363472
3130.019,18.39669
3133.216,18.402081
3136.414,18.38158
3139.611,18.350666
3142.809,18.356655
3146.006,18.372679
3149.204,18.371721
3152.401,18.370941
3155.599,18.386089
3158.797,18.381035
3161.994,18.364567
3165.192,18.36788
3168.389,18.383276
3171.587,18.379715
3174.784,18.372141
3177.982,18.408758
3181.179,18.398615
3184.377,18.362268
3187.575,18.391661
3190.772,18.379766
3193.97,18.408615
3197.167,18.398077
3200.365,18.380463
3203.562,18.368528
3206.76,18.383278
3209.957,18.397404
3213.155,18.427032
3216.353,18.394917
3219.55,18.384403
3222.748,18.375563
3225.945,18.359816
3229.143,18.372458
3232.34,18.386404
3235.538,18.361959
3238.735,18.362291
3241.933,18.35404
3245.131,18.3479
3248.328,18.343277
3251.526,18.384144
3254.723,18.394402
3257.921,18.389565
3261.118,18.355417
3264.316,18.360355
3267.513,18.397919
3270.711,18.398392
3273.909,18.378666
3277.106,18.396664
3280.304,18.395693
3283.501,18.384157
3286.699,18.391014
3289.896,18.380001
3293.094,18.381025
3296.291,18.412342
3299.489,18.391258
3302.687,18.393391
3305.884,18.364882
3309.082,18.403868
3312.279,18.387541
3315.477,18.359648
3318.674,18.390842
3321.872,18.379904
3325.07,18.352186
3328.267,18.356615
3331.465,18.379436
3334.662,18.387608
3337.86,18.387751
3341.057,18.382095
3344.255,18.355301
3347.452,18.390669
3350.65,18.398376
3353.848,18.37764
3357.045,18.395529
3360.243,18.422911
3363.44,18.385649
3366.638,18.394051
3369.835,18.375553
3373.033,18.368196
3376.23,18.376842
3379.428,18.389957
3382.626,18.397989
3385.823,18.392099
3389.021,18.421427
3392.218,18.373556
3395.416,18.37586
3398.613,18.369152
3401.811,18.388493
3405.008,18.411381
3408.206,18.433298
3411.404,18.426332
3414.601,18.427334
3417.799,18.437496
3420.996,18.425642
3424.194,18.447777
3427.391,18.446123
3430.589,18.402302
3433.786,18.423763
3436.984,18.421072
3440.182,18.440617
3443.379,18.440573
3446.577,18.441406
3449.774,18.465609
3452.972,18.450417
3456.169,18.453382
3459.367,18.449781
3462.564,18.481735
3465.762,18.4611
3468.96,18.457077
3472.157,18.472893
3475.355,18.482426
3478.552,18.498539
3481.75,18.503874
3484.947,18.552263
3488.145,18.592476
3491.342,18.543478
3494.54,18.633015
3497.738,18.592016
3500.935,18.611303
3504.133,18.630713
3507.33,18.61726
3510.528,18.637901
3513.725,18.663177
3516.923,18.692631
3520.12,18.69475
3523.318,18.74349
3526.516,18.767262
3529.713,18.816957
3532.911,18.837029
3536.108,18.874125
3539.306,18.904871
3542.503,18.948999
3545.701,19.02615
3548.899,19.061653
3552.096,19.140446
3555.294,19.189621
3558.491,19.215853
3561.689,19.291775
3564.886,19.376015
3568.084,19.460596
3571.281,19.501829
3574.479,19.577652
3577.677,19.655237
3580.874,19.741745
3584.072,19.806591
3587.269,19.884804
3590.467,20.013592
3593.664,20.103565
3596.862,20.197601
3600.059,20.309137
3603.257,20.368002
3606.455,20.414249
3609.652,20.569735
3612.85,20.740908
3616.047,20.842943
3619.245,20.975893
3622.442,21.125509
3625.64,21.256481
3628.837,21.366793
3632.035,21.568378
3635.233,21.691607
3638.43,21.86587
3641.628,22.048016
3644.825,22.260601
3648.023,22.406637
3651.22,22.527573
3654.418,22.809811
3657.615,23.014668
3660.813,23.225716
3664.011,23.378523
3667.208,23.558624
3670.406,23.624584
3673.603,23.74477
3676.801,23.82144
3679.998,23.868172
3683.196,23.840748
3686.393,23.767097
3689.591,23.543751
3692.789,23.395123
3695.986,23.134029
3699.184,22.782276
3702.381,22.466753
3705.579,22.06881
3708.776,21.624493
3711.974,21.16198
3715.171,20.754299
3718.369,20.359276
3721.567,19.947721
3724.764,19.628134
3727.962,19.441835
3731.159,19.210505
3734.357,19.079554
3737.554,18.96073
3740.752,18.906284
3743.95,18.823622
3747.147,18.762674
3750.345,18.728458
3753.542,18.708183
3756.74,18.674219
3759.937,18.648247
3763.135,18.66013
3766.332,18.639343
3769.53,18.63299
3772.728,18.577927
3775.925,18.583998
3779.123,18.58523
3782.32,18.598934
3785.518,18.581711
3788.715,18.582035
3791.913,18.544413
3795.11,18.58181
3798.308,18.532976
3801.506,18.520315
3804.703,18.564213
3807.901,18.556248
3811.098,18.513628
3814.296,18.50301
3817.493,18.492329
3820.691,18.523117
3823.888,18.526388
3827.086,18.533936
3830.284,18.495895
3833.481,18.57679
3836.679,18.502831
3839.876,18.490414
3843.074,18.496691
3846.271,18.494995
3849.469,18.501728
3852.666,18.479595
3855.864,18.447002
3859.062,18.477503
3862.259,18.460716
3865.457,18.503124
3868.654,18.498425
3871.852,18.48661
3875.049,18.469576
3878.247,18.428806
3881.444,18.46913
3884.642,18.469627
3887.84,18.451347
3891.037,18.431633
3894.235,18.401583
3897.432,18.460472
3900.63,18.437824
3903.827,18.439892
3907.025,18.433493
3910.222,18.406895
3913.42,18.432156
3916.618,18.420719
3919.815,18.443117
3923.013,18.410789
3926.21,18.398851
3929.408,18.410294
3932.605,18.419334
3935.803,18.424473
3939.001,18.440481
3942.198,18.418003
3945.396,18.405819
3948.593,18.422333
3951.791,18.417757
3954.988,18.379969
3958.186,18.421686
3961.383,18.389498
3964.581,18.409626
3967.779,18.391827
3970.976,18.378256
3974.174,18.371517
3977.371,18.393387
3980.569,18.397955
3983.766,18.374031
3986.964,18.384508
3990.161,18.397552
3993.359,18.362637
3996.557,18.350998
3999.754,18.359142
4002.952,18.365072
4006.149,18.343586
4009.347,18.3647
4012.544,18.338646
4015.742,18.337868
4018.939,18.348137
4022.137,18.341942
4025.335,18.364695
4028.532,18.373432
4031.73,18.37183
4034.927,18.375444
4038.125,18.37743
4041.322,18.346922
4044.52,18.365269
4047.717,18.337555
4050.915,18.354868
4054.113,18.365408
4057.31,18.345209
4060.508,18.35351
4063.705,18.352879
4066.903,18.343611
4070.1,18.34745
4073.298,18.299728
4076.495,18.31999
4079.693,18.351933
4082.891,18.357515
4086.088,18.412476
4089.286,18.424028
4092.483,18.361208
4095.681,18.371801
4098.878,18.356937
4102.076,18.354746
4105.273,18.348232
4108.471,18.342003
4111.669,18.338898
4114.866,18.357584
4118.064,18.327913
4121.261,18.344448
4124.459,18.372482
4127.656,18.347252
4130.854,18.337152
4134.051,18.372492
4137.249,18.347977
4140.447,18.339815
4143.644,18.335064
4146.842,18.37027
4150.039,18.339058
4153.237,18.326496
4156.434,18.3542
4159.632,18.349379
4162.83,18.35545
4166.027,18.325497
4169.225,18.292358
4172.422,18.364151
4175.62,18.360294
4178.817,18.356743
4182.015,18.347229
4185.212,18.353868
4188.41,18.354374
4191.608,18.346825
4194.805,18.345654
4198.003,18.349609
4201.2,18.367594
4204.398,18.343468
4207.595,18.366938
4210.793,18.357117
4213.99,18.363098
4217.188,18.36692
4220.386,18.374989
4223.583,18.363628
4226.781,18.344988
4229.978,18.369085
4233.176,18.394356
4236.373,18.394886
4239.571,18.399246
4242.768,18.373882
4245.966,18.377121
4249.164,18.392542
4252.361,18.394989
4255.559,18.392904
4258.756,18.39257
4261.954,18.419418
4265.151,18.418684
4268.349,18.424303
4271.546,18.384264
4274.744,18.399839
4277.942,18.422472
4281.139,18.409313
4284.337,18.410675
4287.534,18.433418
4290.732,18.418127
4293.929,18.381651
4297.127,18.438124
4300.324,18.443758
4303.522,18.460463
4306.72,18.463861
4309.917,18.44603
4313.115,18.422073
4316.312,18.454987
4319.51,18.482462
4322.707,18.486712
4325.905,18.473709
4329.102,18.470776
4332.3,18.445337
4335.498,18.505642
4338.695,18.51206
4341.893,18.532656
4345.09,18.532408
4348.288,18.512669
